t [s],x_position_mid [m],u_velo [m/s],y_position_mid [m],vm_velo [m/s],psi_hat [rad],r_angvelo [rad/s],n_prop [rps],delta_rudder [rad],wind_velo_relative_mid [m/s],wind_dir_relative_mid [rad],wind_velo_true [m/s],wind_dir_true [rad]
2501.7,32.2616772453095,0.237406809963472,-4.04533670038818,-0.0133377088226132,0.21851887915061,0.0104767459539057,9.99969482421875,0.0,0.208326098609578,4.85815679260499,0.282972844053504,4.10959855931386
2501.8,32.2844732925511,0.237380651815576,-4.04463176909287,-0.0141423534826805,0.22208070486684,0.0112393200592411,9.99969482421875,0.0,0.208776683013256,4.85848085321631,0.282605920165251,4.11258663985212
2501.9,32.3062483813564,0.237421387445109,-4.03936387431019,-0.0141440463482289,0.22237731148104,0.0119612910023066,9.99969482421875,0.0,0.209204286791534,4.85927504320297,0.282740811553036,4.11435818931131
2502.0,32.3317542826442,0.237323873818834,-4.03123043359993,-0.0148544830003478,0.225229777053557,0.012635318545561,9.99969482421875,0.0,0.1219343998963,3.46764543131209,0.353664063681665,3.43530758772001
2502.1,32.3544951418944,0.237203913299055,-4.03013736689171,-0.0155690389253231,0.228518760076116,0.0132546299179979,9.99969482421875,0.0,0.121963268494841,3.47165358970278,0.353398170538741,3.4379602565191
2502.2,32.378817564926,0.238029335814397,-4.02565284111439,-0.0153995061932085,0.228518758365419,0.0138132277024648,9.99969482421875,0.0,0.220949554305359,3.46249334944963,0.450982911238493,3.49079118799095
2502.3,32.4029971024327,0.237659196353404,-4.02055337546146,-0.0151239924614025,0.228077891911683,0.0143059339298583,9.99969482421875,0.0,0.220985049860849,3.46258842936482,0.450680035365854,3.49111716364992
2502.4,32.4294590352725,0.237042881898128,-4.0163591741396,-0.0161855499975953,0.233760936836,0.0147282748088913,9.99969482421875,0.0,0.221378283800645,3.46552926384828,0.45019713783455,3.49621470557248
2502.5,32.4513682167778,0.236488889830349,-4.01163187259689,-0.015986782637746,0.234446461917643,0.0150767970214421,9.99969482421875,-0.225199833384828,0.233350193796803,3.46147553490635,0.461592181667794,3.50069406788363
2502.6,32.4732784687396,0.235931509867463,-4.00690610651994,-0.0157171251885504,0.235133197973615,0.0153489818949856,9.99969482421875,-0.616851717532356,0.233521599094643,3.46193349712001,0.461224181295084,3.50240910494299
2502.7,32.4963298285023,0.235725521349345,-4.00689124428993,-0.0164092934446625,0.239204812707868,0.0155431857454362,9.99969482421875,-0.616851717532356,0.235665165629569,3.34584683557939,0.467560366457708,3.44798661766619
2502.8,32.5204682528554,0.235602622853287,-4.00165133466547,-0.0159018192085201,0.238661884014028,0.0156588765315195,9.99969482421875,-0.616851717532356,0.235676539881184,3.3463296765818,0.46747036814206,3.44878828117968
2502.9,32.5423840233164,0.235556811551795,-3.99693070570116,-0.0157548432049074,0.239353012847132,0.0156965173583884,9.99969482421875,-0.616851717532356,0.235682195102677,3.34649655378818,0.467436034917439,3.44988454340046
2503.0,32.5647969096477,0.235408059233455,-3.99423188012882,-0.0162259842549064,0.241498072069086,0.0156573418298225,9.99969482421875,-0.616851717532356,0.162485650350651,2.66678515384189,0.390567464928111,3.14922452770981
2503.1,32.5869144488473,0.235282737344312,-3.99031529631605,-0.0162933284827099,0.242768086408742,0.0155435955656982,9.99969482421875,-0.616851717532356,0.162535713713352,2.66679328313759,0.390509936013354,3.15022502379945
2503.2,32.6303575159535,0.235176593904265,-3.97927431421946,-0.0159551303087355,0.243000757020962,0.0153584085677914,9.99969482421875,-0.616851717532356,0.209890866174025,2.60999040763251,0.433734306321205,3.09861897876018
2503.3,32.6305576596468,0.234972518764132,-3.98008067072242,-0.0157195038343212,0.243580941297903,0.0151056885079518,9.99969482421875,-0.616851717532356,0.210024578861398,2.60961015183245,0.433583591859633,3.0993348063683
2503.4,32.6544966396558,0.234612467237748,-3.97464097673846,-0.01671558495707,0.249251019876408,0.0147900756779601,9.99969482421875,-0.548312637806539,0.210115023696873,2.60989238673721,0.433622889215794,3.10264873697327
2503.5,32.6761781092374,0.234669402338545,-3.96895878282649,-0.0162854807072086,0.249251019459783,0.0144167434102806,9.99969482421875,-0.244782427592205,0.219727901487499,2.31624731467594,0.422897485832484,2.95708004392512
2503.6,32.6978595743337,0.234824596978612,-3.96327658595502,-0.0158358524617015,0.249251017583066,0.0139914243878927,9.99969482421875,0.0,0.219937112546062,2.31566977762085,0.422996582258836,2.95773466153836
2503.7,32.722429806181,0.234959714440299,-3.95976417708615,-0.0153673920599227,0.249951578394914,0.0135202935785556,9.99969482421875,0.0,0.247189009581457,2.12087933385433,0.428680799810968,2.83598731051893
2503.8,32.744610249159,0.235071939132327,-3.95603079888523,-0.0151550860285056,0.251356381304505,0.0130098101225686,9.99969482421875,0.0,0.247431193442329,2.12048898556886,0.428840325194105,2.83750002005954
2503.9,32.7689326644392,0.235297684242156,-3.951546271475,-0.0145087825598968,0.251356381098878,0.0124666125733974,9.99969482421875,0.0,0.247702445268184,2.12000543466665,0.428885153836349,2.83853106079733
2504.0,32.7940164163973,0.235580301999159,-3.95001351864598,-0.0143630210089858,0.253485131918025,0.0118974917894192,9.99969482421875,0.0,0.209340692392792,1.84278913355698,0.363105604429325,2.75793988457585
2504.1,32.8156978799396,0.235867447148925,-3.9443313243983,-0.0137372665062703,0.253485132755672,0.0113092186587156,9.99969482421875,0.0,0.209673172848928,1.84260980588547,0.363207028158241,2.75915742733109
2504.2,32.8389339545805,0.235238586674909,-3.9359137430823,-0.0138704552189388,0.257018890658388,0.0107084469534759,9.99969482421875,0.0,0.184416519741018,1.73145319908508,0.329390363443126,2.76161770084078
2504.3,32.860873485754,0.235653458630808,-3.93121200232614,-0.0133249731653907,0.257726884889193,0.0101016402695274,9.99969482421875,0.0,0.184746330097469,1.73141186086297,0.329635233006592,2.76369917809711
2504.4,32.8854551135498,0.236035882109367,-3.92770945260579,-0.0128943031247623,0.25843611134938,0.0094949257104822,9.99969482421875,0.0,0.185067024456599,1.73141663041425,0.329918953720052,2.76547276569873
2504.5,32.9132116400244,0.236374121453192,-3.91873811733471,-0.0127329155324993,0.259842923209295,0.0088940584813913,9.99969482421875,0.0,0.171261230591288,1.35615498395802,0.269085622617104,2.66832704638315
2504.6,32.9370144770845,0.236819829844699,-3.91229359299371,-0.0118945580712353,0.258426929877694,0.0083043885300195,9.99969482421875,-0.244782427592205,0.171489284176641,1.35704634196268,0.269102374728333,2.66988000290712
2504.7,32.9589551614894,0.237093668023651,-3.90759063980692,-0.0114715413261101,0.259134312229443,0.0077307403240261,9.99969482421875,-0.332904101525398,0.144423612855299,0.784146440566527,0.176280314666832,2.70141906190645
2504.8,32.9832775788391,0.237350278695843,-3.90310611333553,-0.0108411487750992,0.259134312022781,0.0071772762928378,9.99969482421875,-0.205617239177452,0.144325249384376,0.785639799014704,0.176297453803325,2.70555124861298
2504.9,33.0065390740064,0.237758288439907,-3.89467297711196,-0.0109923280000027,0.262662097213764,0.006647755712113,9.99969482421875,-0.186034644970076,0.144506624407904,0.787028221522451,0.176894150728586,2.7087903485551
2505.0,33.0308614928468,0.237845782668962,-3.89018845031718,-0.0103034519764847,0.262662096183433,0.0061452207639339,9.99969482421875,-0.225199833384828,0.241310228516682,0.653001015985683,0.16359477322215,2.1200968828395
2505.1,33.0528079168343,0.238024146511338,-3.88549031123489,-0.0097443762527572,0.263373761445834,0.0056721253902049,9.99969482421875,-0.244782427592205,0.241390112468891,0.653856386664293,0.163331755839503,2.12284394464029
2505.2,33.0781941928548,0.237961124684344,-3.8762803174044,-0.0097011954593295,0.265476381122983,0.0052304224007133,9.99969482421875,-0.244782427592205,0.270398309571181,0.681962735922771,0.182321900566733,1.99109532259602
2505.3,33.0975031123639,0.238236897224637,-3.8703862579993,-0.0092550591102914,0.26618985478498,0.0048212488275849,9.99969482421875,-0.244782427592205,0.270440800891237,0.682733255999355,0.182125516864261,1.99406103201807
2505.4,33.1218255340813,0.238493251026688,-3.86590173177021,-0.0086492600974529,0.266189853141262,0.0044453224526449,9.99969482421875,-0.244782427592205,0.270495078466701,0.683424443917263,0.181756513295179,1.99623582142065
2505.5,33.1437765887366,0.238399727208618,-3.86120685422946,-0.0083949020035275,0.266904556346047,0.0041027583899573,9.99969482421875,-0.244782427592205,0.378022522376133,0.59090839969851,0.231632975751872,1.50590792610442
2505.6,33.167307499093,0.238443101944389,-3.85381556515337,-0.0078364102362183,0.264800785936265,0.0037932061467475,9.99969482421875,-0.264365021799581,0.378351854996345,0.590915491636768,0.231357070684244,1.5023169680194
2505.7,33.1889889693972,0.238467333075633,-3.84813337194747,-0.0077856305473745,0.264800785111316,0.0035158539918503,9.99969482421875,-0.274156318903269,0.312039153291921,0.664431084188196,0.200321439583569,1.79998529721848
2505.8,33.210670431714,0.238383221484598,-3.84245117511933,-0.0077008547761219,0.264800784286367,0.003269423741476,9.99969482421875,-0.274156318903269,0.3121628891202,0.664613102803587,0.200362936637777,1.79923389788049
2505.9,33.2387022413682,0.238398402229704,-3.83443931161105,-0.0080671730445626,0.266904553286233,0.0030524486015394,9.99969482421875,-0.274156318903269,0.312174804499206,0.665019000569706,0.200833080230258,1.80181780879348
2506.0,33.2569427859599,0.237266277647939,-3.83327306374128,-0.0075249335239678,0.265516150937884,0.0028631158196892,9.99969482421875,-0.274156318903269,0.273541180417801,0.853790786810161,0.221330635634686,2.09939392927033
2506.1,33.280208625271,0.237423311686013,-3.82488136068108,-0.0066541950421533,0.262689672549451,0.0026992760283779,9.99969482421875,-0.274156318903269,0.273508992249835,0.855137429873063,0.220818231346619,2.09931597948256
2506.2,33.2997826213814,0.237323999360256,-3.81997974913996,-0.0069779077680307,0.264120480816203,0.0025587980104521,9.99969482421875,-0.283947616006958,0.226554318101085,0.674151476411185,0.160210947121291,2.22126405876022
2506.3,33.3275460140582,0.237339533361897,-3.81099004428857,-0.0073829145051426,0.265516148049771,0.0024394251325444,9.99969482421875,-0.283947616006958,0.226623024494054,0.674224015813043,0.160626011020907,2.2213983843515
2506.4,33.3518684414232,0.237362318311507,-3.80650552036161,-0.0074006434468016,0.265516146193127,0.0023388826995659,9.99969482421875,-0.283947616006958,0.226644054949633,0.674418153027416,0.16069787219958,2.22142270661159
2506.5,33.3738195361477,0.237698956930707,-3.80181344911858,-0.0075098030902242,0.266232753315341,0.0022547678979631,9.99969482421875,-0.283947616006958,0.229772245780829,0.683720105396157,0.163876042373322,2.20926023590294
2506.6,33.4015790147998,0.237991193879055,-3.80143378822558,-0.0079075557293295,0.268337657916452,0.0021848892657164,9.99969482421875,-0.283947616006958,0.229704186807569,0.683755597182543,0.164338952953895,2.21253727543476
2506.7,33.4235335959018,0.238264744846239,-3.79674344510643,-0.0079859193184537,0.269056068398457,0.0021272863688073,9.99969482421875,-0.283947616006958,0.256156818192632,0.716725610942643,0.18195332821387,2.09064532979272
2506.8,33.4454893556226,0.239899006815406,-3.79205461478265,-0.0080514362359602,0.269775719731018,0.0020798676833089,9.99969482421875,-0.283947616006958,0.256176924902899,0.716686898843519,0.182428588358513,2.0998221093248
2506.9,33.4706160967621,0.239985465143996,-3.78184050216322,-0.008356788309987,0.271154171223903,0.002040855761965,9.99969482421875,-0.234991130488517,0.256164191167812,0.716728856665107,0.182749358700404,2.10130733730534
2507.0,33.4706658663941,0.241675794814827,-3.78201948391296,-0.0081796166548205,0.271283900738544,0.002008787088167,9.99969482421875,0.0,0.294978931779637,0.774004849980866,0.216566169736222,1.98455183372086
2507.1,33.5163445831431,0.243105988315732,-3.77068175215643,-0.0078887661492001,0.270435211679303,0.0019823116710389,9.99969482421875,0.0,0.374703792328401,0.424763376702076,0.189744502569956,1.29675032595593
2507.2,33.5383014536337,0.243428484319423,-3.76599158832042,-0.00783133484346,0.271154168969294,0.0019603284877646,0.0,0.0,0.355156134221569,0.616970212019383,0.218265955999859,1.62851680343848
2507.3,33.5602595134922,0.243504707938747,-3.76130293456568,-0.0079101887546681,0.271874364735001,0.0019419423359816,-4.43145751953125,0.0,0.355160968691871,0.616990352935971,0.21833554924969,1.6296575518727
2507.4,33.5843053430889,0.244544549206451,-3.75582486947599,-0.0075653125279176,0.271154167944472,0.0019265522058129,-10.0,0.0,0.355173302917442,0.617000195385042,0.217792221365356,1.63323954256892
2507.5,33.6123505689965,0.244398955595336,-3.74778997796078,-0.0077743678942908,0.273244928602262,0.0019137753497564,-10.0,0.0,0.335112179035932,0.528809328207379,0.182457947113603,1.59526412753242
2507.6,33.6355926615128,0.245372559768532,-3.73942968365548,-0.0063839931570014,0.270435205736869,0.0019033488240497,-10.0,0.0,0.335138288988712,0.528903397208679,0.180910511260442,1.59584333382149
2507.7,33.6572741326333,0.246234515547509,-3.73374749160576,-0.0055571508772084,0.270435205559471,0.0018953332202517,-9.13726806640625,0.0,0.284600556539184,0.372590406116903,0.110768641213768,1.67064548953946
2507.8,33.706945014511,0.247004772400046,-3.71983865311393,-0.0052419368991537,0.272386512397169,0.0018897640064736,-9.058837890625,0.0,0.28460904081226,0.37259004838465,0.110332414061284,1.67900655792138
2507.9,33.7072762275135,0.247708173740209,-3.72102243651383,-0.0048792871927318,0.273244924281991,0.0018870471780363,-9.058837890625,0.0,0.273698107856384,0.359740499567803,0.101580401104464,1.7610180581522
2508.0,33.7569427416652,0.249511283938613,-3.70706923228304,-0.0049364667334156,0.275165572284042,0.0018875892616106,-8.98040771484375,0.0,0.252501396367658,0.47929673789276,0.124030891689365,2.05309327438535
2508.1,33.7786242036487,0.249980259280048,-3.70138703678872,-0.0045064666948339,0.275165572687675,0.0018917291798307,-8.98040771484375,0.0,0.252479439988973,0.479331947460504,0.123710262954718,2.05770266503037
2508.2,33.7778794529594,0.250517712408037,-3.69873941829459,-0.0035788030983208,0.273244922679104,0.0019001173026575,-8.98040771484375,0.0,0.24040641011102,0.553671104738912,0.137911704132284,2.18466151262554
2508.3,33.8019242010488,0.250998894392898,-3.69326270458218,-0.0029441993911667,0.27252542773961,0.0019132414455496,-8.9019775390625,0.0,0.240403971970584,0.553657642035377,0.137472046723121,2.18879406614466
2508.4,33.8452336054331,0.25026076833856,-3.68170672336968,-0.0023579354785938,0.272386507942842,0.0019316792722238,-8.66668701171875,0.0,0.245889980855128,0.554262523895463,0.138073494272862,2.14640979365402
2508.5,33.8447598879254,0.250117015890056,-3.68000677001999,-0.0021400403464088,0.271154158926037,0.0019559685978369,-8.5882568359375,0.0,0.234888473526903,0.511656240558391,0.125619004045369,2.21131289791967
2508.6,33.8917895281991,0.249760277893462,-3.66489178865006,-0.0036357835548363,0.273099711103844,0.0019865186967914,-8.50982666015625,0.0,0.234871343260493,0.511470644173541,0.12684850084431,2.20657890794293
2508.7,33.9126732698822,0.249450828706308,-3.656350169508,-0.0042712262900171,0.271026655618416,0.0020237151441844,-8.50982666015625,0.0,0.186944128849309,0.691032595549242,0.162346310109853,2.54897378487626
2508.8,33.9343547404268,0.247994115083294,-3.65066797692102,-0.0053598153494863,0.271026655211965,0.0020678494428736,-8.50982666015625,0.0,0.187092505395008,0.690899111575838,0.162224015482953,2.53695628319885
2508.9,33.9603055562132,0.247717802300638,-3.64338264668707,-0.0069801500359742,0.274529758800855,0.0021191771265593,-8.431396484375,0.0,0.229745575620705,0.685383115446687,0.167691675514623,2.27562797176534
2509.0,33.9846279716538,0.246099083550541,-3.63889811911432,-0.0079592156785815,0.274529758395614,0.0021777195639329,-7.176513671875,0.0,0.202179154345194,0.80150517726331,0.186058122017858,2.44866205163527
2509.1,34.006309442163,0.244850890460708,-3.63321592679684,-0.0085882092249131,0.274529758225501,0.00224350347041,-6.549072265625,0.0,0.201962985243695,0.801792996262041,0.185885380021527,2.44240792022341
2509.2,34.030078124085,0.244800321409696,-3.62675986018364,-0.0089575364281326,0.27309970583832,0.0023164280628278,-6.549072265625,0.0,0.224563807977829,0.846697947075588,0.201586255757115,2.34106392430931
2509.3,34.0517595942765,0.244743376120164,-3.62107766695145,-0.0096086943073067,0.273099705028239,0.002396183662095,-6.47064208984375,0.0,0.224556438285619,0.846416615287923,0.202069099469855,2.33919715041499
2509.4,34.0512873525321,0.243532894497529,-3.61938769428968,-0.0098512274389713,0.271874346283471,0.0024823690173438,-6.47064208984375,0.0,0.217489005708931,0.892440235103103,0.208790210979442,2.38162327142844
2509.5,34.0932301369083,0.243574011358144,-3.6203346870176,-0.0084139512017342,0.263343287659212,0.0025746500861327,-6.47064208984375,0.0,0.222478163302186,0.872041212637448,0.20510198324879,2.34658311125176
2509.6,34.1172897629576,0.242409857753494,-3.63199630502469,-0.0107472162890682,0.270374318938954,0.0026723773216969,-6.47064208984375,0.0,0.222637439398466,0.871319204198102,0.206484406443225,2.34215911958764
2509.7,34.1403242424421,0.241373919664316,-3.63116267916581,-0.01229881774766,0.273889553732726,0.0027750825643937,-6.47064208984375,0.0,0.164546405928684,1.03785762891919,0.220568301228246,2.64241206567823
2509.8,34.1665401016902,0.240311529265938,-3.62475466732952,-0.0138878935997585,0.278032541073084,0.0028820716626846,-6.47064208984375,0.0,0.164576637686723,1.03757542446219,0.220887538644273,2.63785791704692
2509.9,34.1871319448761,0.239326293847932,-3.61523469445237,-0.0138119989734334,0.275246603002411,0.0029926096168331,-6.47064208984375,0.0,0.174805183597349,1.10619327770951,0.234277104650622,2.60429987331599
2510.0,34.2104315552612,0.238558328758005,-3.61523729350571,-0.0153063256625872,0.279374124724594,0.0031059387180068,-6.47064208984375,0.0,0.166678190504619,1.16756402217618,0.241764150427725,2.64910878194529
2510.1,34.2350309054875,0.237917202049207,-3.60312099723442,-0.015813903387674,0.279374122069683,0.0032214495820477,-6.3922119140625,0.0,0.166626306352987,1.16752209979824,0.24163250608416,2.64593364986096
2510.2,34.2567123686154,0.237231488475098,-3.59743880201502,-0.0162812036856062,0.279374122270939,0.0033384433747374,-6.3922119140625,0.0,0.146958490902502,1.23488960503276,0.24435843866257,2.73367292871098
2510.3,34.2807516893667,0.236622933069177,-3.59196608669134,-0.0165341987781771,0.278656282173011,0.0034561621567097,-6.3922119140625,0.0,0.146895890760897,1.23494915477449,0.244032435145363,2.730814458611
2510.4,34.3000753053613,0.237010092289234,-3.58607441392368,-0.0171545535257504,0.279374120660881,0.0035741623159468,-6.31378173828125,0.0,0.154549111646768,1.05530370174585,0.221089778204638,2.66524866115217
2510.5,34.3220410701979,0.23672854593653,-3.58138187829409,-0.0171949537465452,0.280093171914269,0.003691710624903,-6.31378173828125,0.0,0.149584850664849,1.03387115570092,0.216638273691837,2.68380993206654
2510.6,34.347743910412,0.236777350022974,-3.57308182730562,-0.0167526721412495,0.282867324261555,0.0038084220024461,-6.31378173828125,0.0,0.149499347495779,1.03382290582383,0.216366691416077,2.68867881124707
2510.7,34.3694253821342,0.236764731730127,-3.56739963531503,-0.0156661262415283,0.282867323903264,0.0039238069117009,-6.31378173828125,0.0,0.127766179982596,1.10321562232698,0.221293978123507,2.79808530953254
2510.8,34.3887548119756,0.236525388872173,-3.56151241252056,-0.0147375759368118,0.28358926962959,0.0040374989057805,-6.2353515625,0.0,0.127558038833599,1.103661251013,0.220591869999864,2.80258866174571
