t [s],x_position_mid [m],u_velo [m/s],y_position_mid [m],vm_velo [m/s],psi_hat [rad],r_angvelo [rad/s],n_prop [rps],delta_rudder [rad],wind_velo_relative_mid [m/s],wind_dir_relative_mid [rad],wind_velo_true [m/s],wind_dir_true [rad]
1894.0,28.0197490560428,0.121937590015803,4.79134767856814,0.0040753480198062,0.163173856396708,0.0037006152624055,9.21539306640625,0.0,0.581438360904447,5.30242876136757,0.527255155485886,5.26785026495616
1894.1,28.0340371941555,0.12190754185442,4.79742905852156,0.0037736420927582,0.165434625689575,0.0039322936266408,9.21539306640625,0.0,0.581534384112232,5.30231480674183,0.527094939882335,5.27029459221018
1894.2,28.044877925698,0.121831540106024,4.80027015669498,0.0037228642936446,0.165434625689575,0.0041395329840844,9.2938232421875,0.0,0.571358270571465,5.17381934805537,0.532101303645677,5.12958752556396
1894.3,28.055718661997,0.121722309865557,4.80311125386309,0.0036238374672497,0.165434624143218,0.004319245147751,9.2938232421875,0.0,0.571438765287091,5.17375097896684,0.532119197083485,5.12978998734913
1894.4,28.0692003475937,0.121642795933882,4.80475468185747,0.00365811069435,0.165434624920223,0.0044685565457681,9.2938232421875,0.0,0.571504643492869,5.17368816140159,0.532244099855031,5.12987823481253
1894.5,28.0780845878803,0.121668832651384,4.80472992287797,0.0034609287442691,0.168312255682717,0.0045849411588212,8.3526611328125,0.0,0.542088126822601,5.21639434935456,0.498252022701376,5.16577261991811
1894.6,28.0915662784167,0.121770435418386,4.80637334979959,0.0037586653742406,0.168312255565268,0.0046662613491458,8.27423095703125,0.0,0.542123900660161,5.21635960098276,0.498546683783664,5.16537585994486
1894.7,28.1025571795856,0.122021060508823,4.8083323459839,0.0040095511385837,0.16893711075037,0.0047109258010828,8.19580078125,0.0,0.532531620536222,5.04340498302213,0.510191201446251,4.9815303506418
1894.8,28.1133979132228,0.122275590605323,4.81117344190478,0.0044937462441,0.168937111750472,0.0047178184577977,8.19580078125,-0.352486695732775,0.532532883508137,5.04344317696782,0.510643467890687,4.98095545517629
1894.9,28.1249370486972,0.122546123041114,4.80995506471409,0.0049132664670688,0.171813589692847,0.0046862755305214,8.19580078125,-0.577686529117603,0.532522709254676,5.04352564595877,0.511012483540539,4.98324614640812
1895.0,28.1394048642356,0.122608440003842,4.81517774122172,0.0047828765567239,0.1746865759665,0.0046160869241776,8.19580078125,-0.607060420428668,0.502062424755279,5.11873159421987,0.472087267712644,5.04828938291321
1895.1,28.1502456019019,0.122503683832801,4.81801883790445,0.0048988294726189,0.174686574306594,0.0045076894226905,8.19580078125,-0.616851717532356,0.502012503894354,5.1187750984115,0.472165294052679,5.04849557486602
1895.2,28.1610863343053,0.12240313209621,4.82085993597199,0.0050101285785207,0.174686574087261,0.0043618935984887,8.19580078125,-0.616851717532356,0.521793814698726,5.17864958831159,0.484265599126806,5.12072290544932
1895.3,28.1720842780544,0.122409387802546,4.82281186961348,0.0050084488157756,0.175317129860969,0.004180058884733,8.19580078125,-0.616851717532356,0.521712648501591,5.17872445977106,0.484175242507435,5.12138909238853
1895.4,28.1864056276723,0.122423404367447,4.82893073804046,0.0048437538263516,0.177556031124041,0.0039640046663513,8.19580078125,-0.616851717532356,0.521616880602098,5.17881372975496,0.483908421452561,5.12373322407369
1895.5,28.197246359139,0.122531458030198,4.83177183653147,0.005013935991125,0.177556030905275,0.003715925752359,8.0389404296875,-0.616851717532356,0.531654409652658,5.11071119874345,0.502064881326928,5.0573251285766
1895.6,28.2118990748169,0.122545093927504,4.83611410414881,0.0049565699522024,0.181056946320832,0.0034385679454747,7.254638671875,-0.616851717532356,0.531530361474956,5.11082479779387,0.501871143848119,5.06087408590751
1895.7,28.2252172971307,0.122645148929614,4.83865208282283,0.0052416516986122,0.180421915817316,0.0031348294349493,6.7840576171875,-0.616851717532356,0.531400623063843,5.10955768244805,0.502164052191076,5.05858727472357
1895.8,28.2356489131998,0.122912634369333,4.8437462795707,0.0058504470380708,0.178822794615072,0.0028080487229839,6.627197265625,-0.616851717532356,0.53125375718454,5.10971053913133,0.502558738058274,5.05634790755241
1895.9,28.246489648563,0.123167689173854,4.84658737684414,0.0063951363444279,0.178822793301212,0.00246172544241,5.999755859375,-0.616851717532356,0.531100029633424,5.10987805587087,0.5028834494335,5.05575689539483
1896.0,28.2598101432574,0.123323276670373,4.84912421561878,0.0066938985237368,0.178188828881122,0.0020995674981953,5.29388427734375,-0.616851717532356,0.549992103915425,5.06234921592696,0.527397310067378,5.01452217967496
1896.1,28.2706508745682,0.123469199674398,4.85196531173086,0.0068955829933596,0.178188829885153,0.0017254736962348,4.744873046875,-0.616851717532356,0.549814245018662,5.06244479281345,0.527394582834741,5.01422724391619
1896.2,28.2814916112603,0.123415834617048,4.8548064095518,0.0069158057361796,0.178188828353053,0.0013433524505515,4.744873046875,-0.616851717532356,0.599325330887637,4.99661083403146,0.58390445982945,4.96703748555226
1896.3,28.2948129645112,0.123549929345878,4.85734171027763,0.0073681416018393,0.177556028280086,0.000957196021593,4.66644287109375,-0.616851717532356,0.599136463877671,4.99667350523627,0.584152822626251,4.96611033772436
1896.4,28.3081351736325,0.123296125808293,4.85987547890897,0.0074996234598516,0.176924386452162,0.0005707950001105,4.66644287109375,-0.616851717532356,0.598955568165302,4.99680005412573,0.584110751778089,4.96596408103793
1896.5,28.3191353840656,0.123262568276757,4.86182623651264,0.0075930110255828,0.17755602749607,0.0001879215411898,4.66644287109375,-0.616851717532356,0.679893203979002,4.9622035655457,0.667886768861327,4.95705528156673
1896.6,28.3294133758657,0.123133621973513,4.8678236684297,0.0079516228050453,0.175317123058322,-0.0001878599256849,4.66644287109375,-0.616851717532356,0.679711249880207,4.96227263645024,0.668065886390768,4.95499706514016
1896.7,28.3432983311163,0.122932557428743,4.86720110082198,0.0078635193599075,0.17692438535886,-0.0005532472345488,4.66644287109375,-0.616851717532356,0.749419178929959,4.95174006183693,0.737950575544569,4.96351137421917
1896.8,28.3572164110616,0.122744228346705,4.87558596441696,0.0079715180109821,0.177556025436129,-0.0009051140530543,4.66644287109375,-0.616851717532356,0.749248158907282,4.95179684760101,0.737896615461092,4.96440717495532
1896.9,28.3681425491089,0.12257138302049,4.87795158649782,0.0079041880054707,0.177893374373638,-0.0012407849396151,4.66644287109375,-0.616851717532356,0.749084985822752,4.9518502789926,0.73767483837655,4.96500581832523
1897.0,28.3821068825946,0.122314591086906,4.87692512288363,0.0078356798046408,0.179788041657168,-0.0015577443477094,4.117431640625,-0.616851717532356,0.744217122255286,5.04265056655077,0.721713893511758,5.05782340183051
1897.1,28.3929476153271,0.122181706566963,4.87976622049626,0.0079486191907261,0.17978804100289,-0.0018540446356048,4.117431640625,-0.616851717532356,0.744074088002408,5.04270309468429,0.721699904250771,5.05800257019316
1897.2,28.4004627676223,0.122048297890065,4.87842670361408,0.0082461205665421,0.178188824851115,-0.0021279524954362,4.03900146484375,-0.616851717532356,0.77898149596039,5.00902445716541,0.760578063314436,5.02990961809987
1897.3,28.4140610322457,0.121820557461926,4.88859378179691,0.0084508323969042,0.177556023467236,-0.0023783364752992,3.41156005859375,-0.616851717532356,0.778862565432709,5.00907512712329,0.760688928614509,5.02956425322968
1897.4,28.4215792197711,0.121605205899035,4.887266406027,0.0087187967889738,0.17594883663904,-0.0026043449453832,0.0,-0.616851717532356,0.778755037848155,5.00912052805189,0.760872700183381,5.0282142203341
1897.5,28.4359028376484,0.121442073415258,4.89338410103771,0.008555095606833,0.178188823537887,-0.002805657404009,0.0,-0.616851717532356,0.793499815693352,4.97202146853016,0.779811493595449,4.99625148911098
1897.6,28.4492241909035,0.121384858344347,4.89591940176134,0.0085426507741951,0.177556023467236,-0.0029821593225684,0.0,-0.616851717532356,0.793414934104664,4.97205104632052,0.779717726108737,4.99570812041099
1897.7,28.4600649258331,0.121224702667592,4.89876049981495,0.0086493250073471,0.177556022373407,-0.0031342584317541,0.0,-0.616851717532356,0.803489321689357,5.00067454525162,0.786323429585974,5.0267010663999
1897.8,28.4701857001577,0.120864355288733,4.90564709383704,0.0088592805444789,0.174686565219176,-0.0032626787143809,0.0,-0.616851717532356,0.803427782774299,5.00069753558921,0.786517087989636,5.0242616450067
1897.9,28.4817463942383,0.120586381016566,4.90444269389722,0.008564169544101,0.177556021589392,-0.0033685455923841,0.0,-0.616851717532356,0.803377045845105,5.00071572632109,0.786210514387352,5.02754275655896
1898.0,28.4920243852134,0.120178523324297,4.91044012565466,0.0090872551813562,0.175317117572317,-0.0034531683570797,0.0,-0.616851717532356,0.823415190534196,5.07966338292265,0.797142562364904,5.10965093940163
1898.1,28.505348855642,0.119821124118072,4.91297271723246,0.0093919002109703,0.174686563683844,-0.0035182817014834,2.0782470703125,-0.616851717532356,0.823384110116103,5.07967797997801,0.797485830353805,5.10938118926427
1898.2,28.5161895903308,0.119806872834318,4.91581381339664,0.0096893849287082,0.174686563464511,-0.0035656744610407,2.0782470703125,-0.616851717532356,0.788379194274818,5.05347336830962,0.766285240477725,5.07597984102294
1898.3,28.5270303249707,0.119604324549348,4.91865491089607,0.0096383732047562,0.17468656290127,-0.0035973798408484,0.0,-0.616851717532356,0.788363529215393,5.05347624417703,0.766257548359357,5.07625397056263
1898.4,28.5405120161952,0.119611664480234,4.92029833762386,0.00991317373573,0.174686562023937,-0.0036154944659618,0.0,-0.616851717532356,0.788354306503216,5.05348270395418,0.766516070165081,5.07618008373628
1898.5,28.5513527487528,0.119542135836115,4.9231394346062,0.0100019198956255,0.174686562587178,-0.0036223102374942,0.0,-0.616851717532356,0.798424091296886,5.04539751158694,0.777536593185221,5.06999728255128
1898.6,28.5646780729211,0.119548218847511,4.92567048927157,0.0103163174537175,0.174057166035146,-0.0036200120916194,0.0,-0.616851717532356,0.7984235869762,5.04539868783491,0.777843981509498,5.06928692145661
1898.7,28.5755188062097,0.119673270924278,4.92851158693766,0.010454895201637,0.174057165815919,-0.0036109407305727,0.0,-0.616851717532356,0.788312443464729,5.00977453114871,0.772229716269344,5.03108209710021
1898.8,28.5863595396249,0.119598022905459,4.93135268327089,0.0103032900184418,0.174057165911391,-0.0035973267556269,0.0,-0.616851717532356,0.788319478797825,5.00977250964335,0.77209776342519,5.03120709479234
1898.9,28.59664742734,0.119505843366266,4.93735868180092,0.0105871124593155,0.171813573298968,-0.0035812393363308,0.0,-0.616851717532356,0.788325789670062,5.0097666737147,0.772398972157814,5.02902581472712
1899.0,28.6074881636893,0.119444460767898,4.94019977819886,0.0104912352848948,0.171813572320901,-0.0035646217408177,0.0,-0.616851717532356,0.838289264471588,5.02691476835479,0.819681474961779,5.05569407541793
1899.1,28.6183288959932,0.11927503922303,4.94304087659865,0.0104391281040021,0.171813571881104,-0.0035493430126444,0.0,-0.616851717532356,0.838296388218915,5.02691130870325,0.819666622573078,5.05590775811749
1899.2,28.63181058543,0.119236456867307,4.94468430488128,0.0104679612705116,0.171813571099988,-0.0035370357826259,0.0,-0.616851717532356,0.863278999238903,5.01787926220488,0.84551500003907,5.05101994093623
1899.3,28.6426513208201,0.119201544099779,4.94752540187206,0.0104940520915669,0.171813570000497,-0.003529116982646,0.0,-0.616851717532356,0.863282585603766,5.01787695820133,0.845550433573181,5.05105495202953
1899.4,28.6529446499261,0.119031423468828,4.95354233283349,0.0107095782109871,0.169563105058712,-0.0035267648747895,0.0,-0.616851717532356,0.863283513640368,5.01787593868785,0.845792356317101,5.0489606480366
1899.5,28.6662753351279,0.119423391108221,4.95606940041955,0.010740270418224,0.168937093452247,-0.0035310188327223,0.0,-0.616851717532356,0.903248936631314,4.96525605195725,0.8916542017691,5.00110251395574
1899.6,28.6805790818225,0.119808106632282,4.96217000948078,0.010405156705648,0.171186436317494,-0.0035425211948446,0.0,-0.616851717532356,0.903243079840512,4.96525516077959,0.891269875732071,5.00296693362634
1899.7,28.6940607714734,0.120134641585766,4.96381343652199,0.0103450158448379,0.171186436416677,-0.0035618053912492,0.0,-0.616851717532356,0.908327799550662,5.04460809790078,0.886670608222249,5.08351467668966
1899.8,28.7012883230122,0.120514330036615,4.96427712562386,0.0106018145359674,0.168312235513429,-0.0035890578761893,0.0,-0.616851717532356,0.908314461007637,5.0446118175653,0.886833340311887,5.08016527494721
1899.9,28.7122792288698,0.120892418628783,4.96623611895562,0.010293434314012,0.168937091247643,-0.0036243841615747,0.0,-0.616851717532356,0.90829859658742,5.04462013865967,0.886439240645488,5.08044487269279
1900.0,28.7229697910455,0.12069146074864,4.96995931899371,0.0102483920122469,0.168312235410528,-0.0036674801673867,0.0,-0.616851717532356,0.938361599480791,5.08852953008235,0.910976077585038,5.1291294645454
1900.1,28.7338105228853,0.120515459908459,4.9728004167395,0.0101392812537535,0.168312234969829,-0.0037179946107263,0.0,-0.616851717532356,0.938337698972677,5.08853736629164,0.910889044522833,5.12935139554464
1900.2,28.7467548428799,0.120333265612597,4.97762807880534,0.010354337320216,0.166057164105015,-0.0037752503251576,0.0,-0.616851717532356,0.938324806176435,5.05336372441662,0.915333326420233,5.09138510453306
1900.3,28.7575955784249,0.120189369321881,4.98046917487349,0.0103030408560098,0.166057163662974,-0.003838622572121,0.0,-0.616851717532356,0.938294309940715,5.05337232259787,0.915282416999333,5.09155581892204
1900.4,28.768973681492,0.120082484121417,4.98012603672714,0.0098749027680109,0.168312234969829,-0.0039071567787515,0.0,-0.616851717532356,0.938264109774596,5.0533860924803,0.914854943393834,5.09403365466716
1900.5,28.7908053233136,0.120045103984388,4.98492612969271,0.0099707709338094,0.168937088042934,-0.0039799399864341,0.0,-0.616851717532356,0.963536246880698,5.11548261569924,0.932651527990259,5.16151146743286
1900.6,28.8042274238304,0.119929247062456,4.98691917291373,0.0099949634708985,0.168689422912472,-0.00405591694823,0.0,-0.616851717532356,0.908787515652933,5.13404083793273,0.876206696700471,5.17280394515526
1900.7,28.8150681591581,0.119712385485971,4.98976027021799,0.0100671964096453,0.168689421596361,-0.0041340545050566,0.0,-0.616851717532356,0.908747330172099,5.13404818903961,0.87629762971832,5.17301924182207
1900.8,28.8284007270623,0.119812665986163,4.99228093691033,0.0102545504210388,0.168068036844428,-0.0042132626558829,0.0,-0.616851717532356,0.908706803089892,5.13405983770019,0.876406702280255,5.1722329724726
1900.9,28.839241459186,0.119909065146416,4.99512203294415,0.010399331265662,0.16806803761872,-0.0042923772030459,0.0,-0.616851717532356,0.953458640716267,5.01940236533634,0.934542096836266,5.06145924879459
1901.0,28.8387626247623,0.119974985994524,4.99796151569752,0.0107290577933432,0.166057161788878,-0.0043704567326358,0.0,-0.616851717532356,0.95341139219329,5.01939752394556,0.934808336645958,5.05930464663801
1901.1,28.8496033593341,0.120169012105655,5.00080261351256,0.0109280611133386,0.166057161010728,-0.0044464727721971,0.0,-0.616851717532356,1.05781819735965,4.86131176979769,1.05767794059971,4.91322345727664
1901.2,28.8629379579069,0.120151839266846,5.00332533201163,0.0109464481942004,0.165434599180595,-0.0045196369735583,0.0,-0.616851717532356,1.05778160879774,4.86131268665724,1.0576604243626,4.91261398709768
1901.3,28.8737786950098,0.12002765702362,5.0061664272258,0.0109304129966305,0.165434599515784,-0.0045892007093751,0.0,-0.616851717532356,1.05774720533211,4.86131369945154,1.05761439010101,4.91272972669816
1901.4,28.8844731569446,0.12020916501233,5.00988527849677,0.0112341212255263,0.164813190292888,-0.0046543227929345,0.0,-0.616851717532356,1.05771089543931,4.86131257856581,1.0578757404609,4.91192069314372
1901.5,28.8982317630709,0.119848616698836,5.0191604821424,0.011435305519952,0.164813187971455,-0.0047146556794296,0.0,-0.616851717532356,1.07760384343175,4.68567081887956,1.09875650283389,4.74150114252864
1901.6,28.9115679952255,0.119400604905942,5.02168012920373,0.0117513460364485,0.164192929742704,-0.0047697625842317,0.0,-0.616851717532356,1.07757599920158,4.68567312804026,1.09898178556534,4.74132100279285
1901.7,28.9224087305982,0.119001649235467,5.0245212262149,0.0119700595738113,0.164192928639289,-0.0048193681958908,0.0,-0.616851717532356,1.05248631865718,4.6514295560774,1.07816966752672,4.70589852506138
1901.8,28.9357457709503,0.118519345891899,5.02703934407091,0.012429798378596,0.163573817365361,-0.0048633503316155,0.0,-0.616851717532356,1.05246095523432,4.65142957893432,1.07851755586734,4.70578413649148
1901.9,28.9465865066061,0.11820455855195,5.02988043936575,0.0127442545316785,0.163573817477238,-0.0049017565486459,0.0,-0.616851717532356,1.05243969364714,4.65142782018946,1.07875418003603,4.70611451267159
1902.0,28.9574272420449,0.118336017358631,5.03272153707164,0.0129760854326105,0.16357381648308,-0.0049347831192485,0.0,-0.616851717532356,1.03252036863175,4.59858526459864,1.06520337924455,4.65293146831086
1902.1,28.9702445459578,0.118416584469409,5.03842669385877,0.0135262598410654,0.160699716472242,-0.0049627082533213,0.0,-0.616851717532356,1.03250608845147,4.59858365786274,1.06574363532527,4.65009536472864
1902.2,28.9801549112668,0.118484337203317,5.03770430645469,0.0142111728389852,0.157822316092002,-0.0049860069607618,0.0,-0.616851717532356,0.937389211448213,4.58847319282542,0.973061709841991,4.6269632552529
1902.3,28.988493252964,0.118590208055169,5.04087411070526,0.0144497958418755,0.158436800310243,-0.0050051607551922,0.0,-0.616851717532356,0.937378950956141,4.58847163661961,0.973309279201604,4.62752729834052
1902.4,29.0052669024269,0.118703418112337,5.04662262726453,0.01464865052933,0.160084053365872,-0.0050207644810799,0.0,-0.616851717532356,0.937369975349396,4.58847241512762,0.973521781721474,4.62910736077826
1902.5,29.0161076356316,0.118713924236572,5.04946372526325,0.0146906584723148,0.160084052923859,-0.0050334593329883,0.0,-0.616851717532356,0.867407758329509,4.58929406240361,0.904047412402936,4.62067064024921
1902.6,29.0269483674019,0.118608693713524,5.05230482333503,0.0147626835006265,0.160084052260841,-0.0050440374970915,0.0,-0.616851717532356,0.867403012778202,4.58929151558482,0.904085762667715,4.62080233042371
1902.7,29.0377891050287,0.118513818402878,5.05514592048654,0.0148693108671017,0.160084050934802,-0.0050532366453093,0.0,-0.616851717532356,0.877039183994554,4.54212369759274,0.918917749561412,4.57749778440841
1902.8,29.0481171825522,0.118278976149073,5.06118499486608,0.0152674409924579,0.157822313875312,-0.0050619202399837,0.0,-0.616851717532356,0.877034555845671,4.54212740331487,0.919225098233811,4.57561041277021
1902.9,29.0614610977525,0.118203113865688,5.06369585300375,0.0154230650682065,0.157208972555218,-0.0050707726555301,0.0,-0.616851717532356,0.877030304296799,4.54212653542281,0.919347227730046,4.57512542014984
1903.0,29.0697986536325,0.117968551066528,5.06686718788349,0.0153004631924578,0.157822312988635,-0.0050806158570203,0.0,-0.616851717532356,0.861686822381287,4.66001195826709,0.890864832042081,4.68609502752418
1903.1,29.0806393877563,0.117633509563901,5.06970828546795,0.0151353754535244,0.157822312545297,-0.0050920933109403,0.0,-0.616851717532356,0.861687766491303,4.66002072212584,0.890640858419576,4.68644055928857
1903.2,29.0934786089698,0.117356308160223,5.07542647790246,0.0154432535650961,0.154941653383204,-0.0051059212063201,0.0,-0.616851717532356,0.796288594586557,4.67429731695627,0.824492700665056,4.68722354085936
